# Mass function for redshift 0.050000
# 1) mass (Msun/h)
# 2) n(m) (Mpc^-3 Msun^-1 h^4)
# 3) upper +1-sigma limit for n(m) (Mpc^-3 Msun^-1 h^4)
# 4) lower -1-sigma limit for n(m) (Mpc^-3 Msun^-1 h^4)
# 5) number of halos in the bin
# 6) analytical n(m) from Watson et al. 2013
# 7) peak height nu = delta_c / sigma(M,z), with delta_c = 1.686
#
   7.2213044e+12   6.0291341e-17   6.1904425e-17   5.8678258e-17         1397    8.6143009e-17         0.75622994
    8.286532e+12   4.8681913e-17   5.0731792e-17   4.6632035e-17          564    6.6342274e-17         0.77444257
   9.2990881e+12   4.0999838e-17   4.2330049e-17   3.9669628e-17          950    5.3304999e-17         0.79021059
   1.0358165e+13   3.5303019e-17   3.7048641e-17   3.3557397e-17          409    4.3438398e-17         0.80539982
   1.1383548e+13   3.1418824e-17   3.2583283e-17   3.0254365e-17          728    3.6314345e-17         0.81905183
   1.2775723e+13   2.2830436e-17   2.3823064e-17   2.1837809e-17          529    2.9173178e-17         0.83621005
   1.4432377e+13   2.0140272e-17   2.0901502e-17   1.9379041e-17          700    2.3146037e-17         0.85492707
    1.653148e+13   1.5766955e-17   1.6440486e-17   1.5093424e-17          548    1.7885949e-17         0.87650988
   1.8594328e+13   1.2228022e-17   1.2821168e-17   1.1634876e-17          425     1.430611e-17         0.89585451
   2.0684377e+13   1.1192237e-17   1.1759706e-17   1.0624768e-17          389    1.1684916e-17         0.91392505
   2.3048914e+13   8.3941775e-18   8.8197792e-18   7.9685758e-18          389    9.5119747e-18         0.93284008
   2.5862213e+13   6.7326051e-18   7.1137638e-18   6.3514464e-18          312    7.6408595e-18         0.95360132
   2.8973429e+13   5.2652424e-18   5.5667293e-18   4.9637555e-18          305    6.1551246e-18         0.97474849
    3.265542e+13   4.4740175e-18   4.7277157e-18   4.2203192e-18          311    4.9005715e-18         0.99776725
   3.6896357e+13   3.6396348e-18   3.8684567e-18   3.4108129e-18          253    3.8823002e-18          1.0220865
   4.1323324e+13   2.9593868e-18   3.1504144e-18   2.7683592e-18          240    3.1266426e-18          1.0454331
   4.6363959e+13   2.0962323e-18    2.257006e-18   1.9354587e-18          170    2.5086262e-18          1.0699459
   5.1656449e+13    1.774262e-18   1.9047084e-18   1.6438157e-18          185    2.0391559e-18          1.0937308
   5.8084644e+13   1.5105204e-18    1.624705e-18   1.3963358e-18          175    1.6278235e-18          1.1204107
   6.5010653e+13   1.0185223e-18   1.1122849e-18   9.2475973e-19          118       1.3104e-18          1.1469263
   7.2577084e+13   1.0490647e-18   1.1325238e-18   9.6560559e-19          158    1.0594698e-18          1.1737202
   8.2168072e+13   6.8388395e-19   7.5126903e-19   6.1649886e-19          103    8.3308055e-19          1.2050138
   9.2398343e+13   6.3657644e-19   6.9517805e-19   5.7797483e-19          118     6.631592e-19           1.235707
   1.0383715e+14   5.0773794e-19   5.5851173e-19   4.5696414e-19          100    5.2805032e-19          1.2673534
   1.1612654e+14   4.9063519e-19   5.3784658e-19   4.4342379e-19          108    4.2405652e-19          1.2987755
   1.2925059e+14   3.6487895e-19   4.0271513e-19   3.2704276e-19           93    3.4340425e-19          1.3298994
   1.4659017e+14   2.8052521e-19   3.1228844e-19   2.4876199e-19           78    2.6759036e-19          1.3678593
   1.6455766e+14   2.2503671e-19   2.5137526e-19   1.9869815e-19           73    2.1247692e-19           1.404084
    1.832606e+14   2.0140272e-19   2.2547494e-19   1.7733049e-19           70    1.7116871e-19          1.4390368
   2.0731436e+14   1.5783396e-19   1.7756321e-19   1.3810472e-19           64    1.3335907e-19           1.480601
   2.3391747e+14   8.8586909e-20   1.0277217e-19   7.4401651e-20           39    1.0421537e-19          1.5229383
   2.5893807e+14   8.4353735e-20   9.7217559e-20   7.1489911e-20           43     8.452115e-20          1.5598959
   2.9031769e+14   7.7324257e-20   8.9116095e-20   6.5532418e-20           43    6.6614385e-20          1.6030085
   3.2631019e+14   5.8066757e-20   6.7612873e-20   4.8520641e-20           37    5.2084685e-20          1.6487879
   3.7148146e+14   3.1130162e-20   3.7767135e-20   2.4493189e-20           22    3.9497543e-20          1.7017211
   4.1012241e+14   4.3157725e-20   5.0559213e-20   3.5756236e-20           34    3.1887347e-20          1.7437165
   4.5838333e+14   2.2419597e-20   2.7432772e-20   1.7406423e-20           20     2.498542e-20          1.7926547
   5.1575375e+14    2.480329e-20   2.9763948e-20   1.9842632e-20           25    1.9212311e-20          1.8466143
   5.7552555e+14     1.42376e-20      1.7797e-20     1.06782e-20           16    1.4983831e-20          1.8988085
   6.5606316e+14   1.1988257e-20   1.5083611e-20   8.8929023e-21           15    1.1068505e-20          1.9638302
   7.2884924e+14   1.2027563e-20   1.4944675e-20   9.1104502e-21           17    8.6333498e-21          2.0182801
   8.4522627e+14   2.5201591e-21   3.7802387e-21   1.2600796e-21            4     6.031909e-21          2.0984854
   9.2784497e+14    7.846859e-21   9.9440203e-21   5.7496977e-21           14    4.7853601e-21          2.1512096
   1.0339751e+15   4.5165061e-21   6.0220081e-21   3.0110041e-21            9    3.6348118e-21          2.2147115
   1.1661913e+15    2.224625e-21   3.2195075e-21   1.2297424e-21            5    2.6551519e-21          2.2882708
   1.2787895e+15   2.7843693e-21    3.836762e-21   1.7319766e-21            7    2.0736963e-21           2.346854
   1.4782828e+15   1.4208304e-21   2.1312457e-21   7.1041522e-22            4    1.3878757e-21          2.4431335
   1.6545442e+15   6.3234762e-22   1.0794849e-21   1.8521033e-22            2      1.00386e-21          2.5216241
   1.7460414e+15   5.6231563e-22   9.5993283e-22   1.6469844e-22            2    8.5647865e-22          2.5603188
   2.0948813e+15   7.5494562e-22   1.1908137e-21   3.1907756e-22            3    4.9000847e-22          2.6972713
   2.3128186e+15   2.2361515e-22   4.4723031e-22               0            1    3.5639103e-22          2.7757776
   2.5950251e+15   1.9934284e-22   3.9868568e-22               0            1    2.4246448e-22           2.870952
   2.9116661e+15   1.7760381e-22   3.5520761e-22               0            1    1.6210771e-22          2.9704793
   3.2669431e+15               0               0               0            0    1.0632588e-22           3.074595
   3.6655704e+15               0               0               0            0    6.8285155e-23          3.1835483
   4.1128377e+15               0               0               0            0    4.2850535e-23           3.297604
   4.6146798e+15               0               0               0            0     2.621353e-23          3.4170434
   5.1777558e+15               0               0               0            0    1.5592819e-23          3.5421681
   5.8095376e+15   8.9076831e-23   1.7815366e-22               0            1    8.9934637e-24          3.6732986
